Height	Pressure
48	29.1
46	30.6
44	31.9
42	33.2
40	35.3
38	37
36	39.3
34	41.6
32	44.2
30	47.5
28	50.3
26	54.3
24	58.8
23	61.3
22	64.5
21	67.1
20	70.7
19	74.1
18	77.9
17	82.75
16	87.9
15	93.1
14	100.4
13	107.8
12	117.6